# cv FES error #temp= 350 K, pres= 1 GPa, blocks_neff=8.96017
0.000000000000000000e+00 5.775160225502867917e+01 3.851808441605837907e-01
1.010101010101010187e-02 5.440448901192198150e+01 3.127528564624836305e-01
2.020202020202020374e-02 5.186208234949349105e+01 2.456844630765960269e-01
3.030303030303030387e-02 5.003744795983696747e+01 2.024629019930138663e-01
4.040404040404040747e-02 4.881143780930804610e+01 1.789614368303999448e-01
5.050505050505051108e-02 4.807309598354379432e+01 1.547796896148018742e-01
6.060606060606060774e-02 4.770998581363958380e+01 1.453183173870400968e-01
7.070707070707071829e-02 4.758251038520008080e+01 1.467381860436451912e-01
8.080808080808081495e-02 4.761781791418645327e+01 1.382987635266668958e-01
9.090909090909091161e-02 4.778022924909511460e+01 9.622454550322405431e-02
1.010101010101010222e-01 4.804558656836375263e+01 5.955079764381632224e-02
1.111111111111111188e-01 4.834400396812185363e+01 4.386080592311026455e-02
1.212121212121212155e-01 4.867428042069559524e+01 4.243402285298949334e-02
1.313131313131313260e-01 4.909138578222169969e+01 6.994121445926061720e-02
1.414141414141414366e-01 4.964701066341130087e+01 1.138835920234111260e-01
1.515151515151515194e-01 5.024140851386908935e+01 1.622234522610102592e-01
1.616161616161616299e-01 5.069094048915058437e+01 2.017471065144968989e-01
1.717171717171717404e-01 5.097915024398224659e+01 1.869350483810407193e-01
1.818181818181818232e-01 5.132560689880544658e+01 1.670353369602879112e-01
1.919191919191919338e-01 5.185687640875073612e+01 2.022417216510691007e-01
2.020202020202020443e-01 5.238114329821068793e+01 2.329221590779478601e-01
2.121212121212121271e-01 5.269404601120809417e+01 2.140286853990545080e-01
2.222222222222222376e-01 5.298986612949411779e+01 1.858758435318724200e-01
2.323232323232323482e-01 5.339398053548484313e+01 1.973294588465917543e-01
2.424242424242424310e-01 5.375911912177786434e+01 1.961330128328051536e-01
2.525252525252525415e-01 5.407157366483522765e+01 2.357338261951312519e-01
2.626262626262626521e-01 5.436647428002677884e+01 2.476165796258109342e-01
2.727272727272727626e-01 5.468820987086579066e+01 2.365271083636517890e-01
2.828282828282828731e-01 5.492834035721914177e+01 1.912172737945881107e-01
2.929292929292929282e-01 5.501302121016013302e+01 1.261037806603060585e-01
3.030303030303030387e-01 5.504182251940558501e+01 1.407518444625199261e-01
3.131313131313131493e-01 5.513478135548158576e+01 2.029403623615675389e-01
3.232323232323232598e-01 5.509669110203500964e+01 1.639519789827393326e-01
3.333333333333333703e-01 5.507695086797476591e+01 1.143523340030659224e-01
3.434343434343434809e-01 5.511680370763593828e+01 1.338386840835754377e-01
3.535353535353535914e-01 5.520752981360375600e+01 2.148479613308008074e-01
3.636363636363636465e-01 5.525364982872403630e+01 2.483322380362454895e-01
3.737373737373737570e-01 5.504478647537539615e+01 2.413554721162022576e-01
3.838383838383838675e-01 5.469046821457615692e+01 2.168917681241158135e-01
3.939393939393939781e-01 5.437111645622837841e+01 2.035979490664283631e-01
4.040404040404040886e-01 5.416449005206483491e+01 1.981209298054996959e-01
4.141414141414141992e-01 5.393236454255828960e+01 1.859354576502239287e-01
4.242424242424242542e-01 5.364716437519980730e+01 1.451794103230309996e-01
4.343434343434343647e-01 5.324139638731092816e+01 1.238261541777973401e-01
4.444444444444444753e-01 5.283824532821526532e+01 1.307526682530767703e-01
4.545454545454545858e-01 5.259067555402584304e+01 1.539305735733238201e-01
4.646464646464646964e-01 5.228019224820853594e+01 1.304071540237472238e-01
4.747474747474748069e-01 5.176373559822460635e+01 1.053943622882786979e-01
4.848484848484848619e-01 5.116372021281443949e+01 1.367913739186494559e-01
4.949494949494949725e-01 5.062721904250673077e+01 1.418877623594102799e-01
5.050505050505050830e-01 5.013744941390145016e+01 1.403249180675104346e-01
5.151515151515152491e-01 4.963800593253225202e+01 1.752719953368341299e-01
5.252525252525253041e-01 4.910821052296084588e+01 2.112314780160841621e-01
5.353535353535353591e-01 4.853308871719688256e+01 2.079358364056248520e-01
5.454545454545455252e-01 4.787603552464435097e+01 1.959922160233331101e-01
5.555555555555555802e-01 4.718455211942269756e+01 2.051309547266612632e-01
5.656565656565657463e-01 4.653498578745742265e+01 2.308172638572791868e-01
5.757575757575758013e-01 4.591697250875056113e+01 2.804620372929284566e-01
5.858585858585858563e-01 4.516194790035131490e+01 2.445885572646523953e-01
5.959595959595960224e-01 4.439503928281535394e+01 2.098873129031086360e-01
6.060606060606060774e-01 4.364138574263997583e+01 2.070545897170723015e-01
6.161616161616162435e-01 4.282896398191097376e+01 2.188097821142464539e-01
6.262626262626262985e-01 4.204327022276418546e+01 2.442207048601541253e-01
6.363636363636364646e-01 4.128193700185492787e+01 2.793179801414488184e-01
6.464646464646465196e-01 4.032835807120189031e+01 2.512512462856812956e-01
6.565656565656565746e-01 3.929148122364176743e+01 2.177280281074808754e-01
6.666666666666667407e-01 3.828074750523723679e+01 2.064405570470746465e-01
6.767676767676767957e-01 3.724458768423473032e+01 2.132830472493632279e-01
6.868686868686869618e-01 3.624112309778235641e+01 2.378845665102510276e-01
6.969696969696970168e-01 3.536841059029577394e+01 2.326707112246586551e-01
7.070707070707071829e-01 3.450342332360452247e+01 2.291268380044340636e-01
7.171717171717172379e-01 3.359837544251466568e+01 2.499461294428598490e-01
7.272727272727272929e-01 3.279384937247944265e+01 2.807519728639715217e-01
7.373737373737374590e-01 3.202097847038264433e+01 2.967328174412500741e-01
7.474747474747475140e-01 3.107618109716101173e+01 2.578639270413344287e-01
7.575757575757576801e-01 3.009245861113552678e+01 2.277200177193363095e-01
7.676767676767677351e-01 2.918469363242426340e+01 2.193103686838896171e-01
7.777777777777777901e-01 2.830286032917646821e+01 2.347490932666001506e-01
7.878787878787879562e-01 2.736144231457939213e+01 2.307269090878831808e-01
7.979797979797980112e-01 2.646698074573757253e+01 1.798609658832196478e-01
8.080808080808081773e-01 2.570912081420151196e+01 2.691097304038495008e-01
8.181818181818182323e-01 2.508897467504449708e+01 4.818489298685668665e-01
8.282828282828283983e-01 2.418497531497997954e+01 5.088180491423880403e-01
8.383838383838384534e-01 2.303137389066656482e+01 3.956546923983420005e-01
8.484848484848485084e-01 2.204346782438249619e+01 3.443438931582864515e-01
8.585858585858586745e-01 2.105375689240948844e+01 3.056853222015084581e-01
8.686868686868687295e-01 1.986934521042391566e+01 3.225177051865880107e-01
8.787878787878788955e-01 1.848877382421817828e+01 2.626115448523297369e-01
8.888888888888889506e-01 1.675236614625025311e+01 1.992120409096423406e-01
8.989898989898991166e-01 1.481357607969435719e+01 1.651359099324033464e-01
9.090909090909091717e-01 1.302022412383604433e+01 1.433361173766913854e-01
9.191919191919192267e-01 1.108601870139231949e+01 1.220026876389933290e-01
9.292929292929293927e-01 8.876402678185087325e+00 1.104313754984260765e-01
9.393939393939394478e-01 6.628218933059386586e+00 8.266854501390002996e-02
9.494949494949496138e-01 4.450762387765266226e+00 7.821713212212853816e-02
9.595959595959596689e-01 2.511106556468305939e+00 9.152515382350361051e-02
9.696969696969697239e-01 1.023719023659054983e+00 1.034199083777142814e-01
9.797979797979798899e-01 1.481688812232562213e-01 1.125794994720300951e-01
9.898989898989899450e-01 0.000000000000000000e+00 1.213637302660236922e-01
1.000000000000000000e+00 6.657835977309218833e-01 1.302318226014924363e-01
